[Info]
Number of Regions=0001
Version=1.3.1

[Region 1]
Region Name=VB
Dimension 1 name=Kinetic Energy [eV]
Dimension 1 size=381
Dimension 1 scale=7924 7924.05 7924.1 7924.15 7924.2 7924.25 7924.3 7924.35 7924.4 7924.45 7924.5 7924.55 7924.6 7924.65 7924.7 7924.75 7924.8 7924.85 7924.9 7924.95 7925 7925.05 7925.1 7925.15 7925.2 7925.25 7925.3 7925.35 7925.4 7925.45 7925.5 7925.55 7925.6 7925.65 7925.7 7925.75 7925.8 7925.85 7925.9 7925.95 7926 7926.05 7926.1 7926.15 7926.2 7926.25 7926.3 7926.35 7926.4 7926.45 7926.5 7926.55 7926.6 7926.65 7926.7 7926.75 7926.8 7926.85 7926.9 7926.95 7927 7927.05 7927.1 7927.15 7927.2 7927.25 7927.3 7927.35 7927.4 7927.45 7927.5 7927.55 7927.6 7927.65 7927.7 7927.75 7927.8 7927.85 7927.9 7927.95 7928 7928.05 7928.1 7928.15 7928.2 7928.25 7928.3 7928.35 7928.4 7928.45 7928.5 7928.55 7928.6 7928.65 7928.7 7928.75 7928.8 7928.85 7928.9 7928.95 7929 7929.05 7929.1 7929.15 7929.2 7929.25 7929.3 7929.35 7929.4 7929.45 7929.5 7929.55 7929.6 7929.65 7929.7 7929.75 7929.8 7929.85 7929.9 7929.95 7930 7930.05 7930.1 7930.15 7930.2 7930.25 7930.3 7930.35 7930.4 7930.45 7930.5 7930.55 7930.6 7930.65 7930.7 7930.75 7930.8 7930.85 7930.9 7930.95 7931 7931.05 7931.1 7931.15 7931.2 7931.25 7931.3 7931.35 7931.4 7931.45 7931.5 7931.55 7931.6 7931.65 7931.7 7931.75 7931.8 7931.85 7931.9 7931.95 7932 7932.05 7932.1 7932.15 7932.2 7932.25 7932.3 7932.35 7932.4 7932.45 7932.5 7932.55 7932.6 7932.65 7932.7 7932.75 7932.8 7932.85 7932.9 7932.95 7933 7933.05 7933.1 7933.15 7933.2 7933.25 7933.3 7933.35 7933.4 7933.45 7933.5 7933.55 7933.6 7933.65 7933.7 7933.75 7933.8 7933.85 7933.9 7933.95 7934 7934.05 7934.1 7934.15 7934.2 7934.25 7934.3 7934.35 7934.4 7934.45 7934.5 7934.55 7934.6 7934.65 7934.7 7934.75 7934.8 7934.85 7934.9 7934.95 7935 7935.05 7935.1 7935.15 7935.2 7935.25 7935.3 7935.35 7935.4 7935.45 7935.5 7935.55 7935.6 7935.65 7935.7 7935.75 7935.8 7935.85 7935.9 7935.95 7936 7936.05 7936.1 7936.15 7936.2 7936.25 7936.3 7936.35 7936.4 7936.45 7936.5 7936.55 7936.6 7936.65 7936.7 7936.75 7936.8 7936.85 7936.9 7936.95 7937 7937.05 7937.1 7937.15 7937.2 7937.25 7937.3 7937.35 7937.4 7937.45 7937.5 7937.55 7937.6 7937.65 7937.7 7937.75 7937.8 7937.85 7937.9 7937.95 7938 7938.05 7938.1 7938.15 7938.2 7938.25 7938.3 7938.35 7938.4 7938.45 7938.5 7938.55 7938.6 7938.65 7938.7 7938.75 7938.8 7938.85 7938.9 7938.95 7939 7939.05 7939.1 7939.15 7939.2 7939.25 7939.3 7939.35 7939.4 7939.45 7939.5 7939.55 7939.6 7939.65 7939.7 7939.75 7939.8 7939.85 7939.9 7939.95 7940 7940.05 7940.1 7940.15 7940.2 7940.25 7940.3 7940.35 7940.4 7940.45 7940.5 7940.55 7940.6 7940.65 7940.7 7940.75 7940.8 7940.85 7940.9 7940.95 7941 7941.05 7941.1 7941.15 7941.2 7941.25 7941.3 7941.35 7941.4 7941.45 7941.5 7941.55 7941.6 7941.65 7941.7 7941.75 7941.8 7941.85 7941.9 7941.95 7942 7942.05 7942.1 7942.15 7942.2 7942.25 7942.3 7942.35 7942.4 7942.45 7942.5 7942.55 7942.6 7942.65 7942.7 7942.75 7942.8 7942.85 7942.9 7942.95 7943

[Info 1]
Region Name=VB
Lens Mode=Transmission
Pass Energy=100
Number of Sweeps=15
Excitation Energy=7940
Energy Scale=Kinetic
Acquisition Mode=Swept
Energy Unit=Kinetic
Center Energy=7933.5
Low Energy=7924
High Energy=7943
Energy Step=0.05
Step Time=203
Detector First X-Channel=50
Detector Last X-Channel=1010
Detector First Y-Channel=1
Detector Last Y-Channel=1000
Number of Slices=1
File=D:\EH1_ExpData\2022B\20230212_NEDO\14\VB_0001.txt
Sequence=D:\SES_1.9.1_Win64 - Service\sequences\Miyazawa.seq
Spectrum Name=VB
Instrument=R4000HE-11508
Location=SPring-8
User=Miyazawa
Sample=14
Comments=PE100eV,s0.3,MCP1400V,Al:0um,Si:0um,;theta=-85deg, 300K;
Date=2023-02-14
Time=15:22:50
Time per Spectrum Channel=459.795
DetectorMode=ADC
ThetaX=0
ThetaY=0
[Run Mode Information 1]



[Data 1]
 7.92400000000000E+0003  2.15906229611996E+0004
 7.92405000000000E+0003  2.16434013193101E+0004
 7.92410000000000E+0003  2.13644836840986E+0004
 7.92415000000000E+0003  2.11549776968977E+0004
 7.92420000000000E+0003  2.10666857260145E+0004
 7.92425000000000E+0003  2.11527250514969E+0004
 7.92430000000000E+0003  2.10872771522402E+0004
 7.92435000000000E+0003  2.09065538728961E+0004
 7.92440000000000E+0003  2.10380047291007E+0004
 7.92445000000000E+0003  2.09334032710606E+0004
 7.92450000000000E+0003  2.10609552077835E+0004
 7.92455000000000E+0003  2.08059616357319E+0004
 7.92460000000000E+0003  2.11428901301900E+0004
 7.92465000000000E+0003  2.05998399427120E+0004
 7.92470000000000E+0003  2.05789784326985E+0004
 7.92475000000000E+0003  2.08659525367259E+0004
 7.92480000000000E+0003  2.06882197652768E+0004
 7.92485000000000E+0003  2.06831152045948E+0004
 7.92490000000000E+0003  2.08642946941708E+0004
 7.92495000000000E+0003  2.11001061321619E+0004
 7.92500000000000E+0003  2.08085172377141E+0004
 7.92505000000000E+0003  2.07617259659791E+0004
 7.92510000000000E+0003  2.06983406913412E+0004
 7.92515000000000E+0003  2.09937332085313E+0004
 7.92520000000000E+0003  2.08803905654395E+0004
 7.92525000000000E+0003  2.09571275775935E+0004
 7.92530000000000E+0003  2.04755760871159E+0004
 7.92535000000000E+0003  2.06871300378988E+0004
 7.92540000000000E+0003  2.07971191978947E+0004
 7.92545000000000E+0003  2.07079875390350E+0004
 7.92550000000000E+0003  2.09723554696663E+0004
 7.92555000000000E+0003  2.10501315828055E+0004
 7.92560000000000E+0003  2.09331496809392E+0004
 7.92565000000000E+0003  2.10809314431592E+0004
 7.92570000000000E+0003  2.11327728693848E+0004
 7.92575000000000E+0003  2.08718223348068E+0004
 7.92580000000000E+0003  2.10597247115441E+0004
 7.92585000000000E+0003  2.08137456154337E+0004
 7.92590000000000E+0003  2.14842225481249E+0004
 7.92595000000000E+0003  2.13421680970341E+0004
 7.92600000000000E+0003  2.12463766621951E+0004
 7.92605000000000E+0003  2.13085133433761E+0004
 7.92610000000000E+0003  2.13288262099021E+0004
 7.92615000000000E+0003  2.14107319247742E+0004
 7.92620000000000E+0003  2.14426294157210E+0004
 7.92625000000000E+0003  2.16463282578657E+0004
 7.92630000000000E+0003  2.16766995119707E+0004
 7.92635000000000E+0003  2.14721663651991E+0004
 7.92640000000000E+0003  2.14213543041139E+0004
 7.92645000000000E+0003  2.15275482027401E+0004
 7.92650000000000E+0003  2.15010310832307E+0004
 7.92655000000000E+0003  2.13468989158163E+0004
 7.92660000000000E+0003  2.15310660498035E+0004
 7.92665000000000E+0003  2.16283552011861E+0004
 7.92670000000000E+0003  2.13927971242376E+0004
 7.92675000000000E+0003  2.15100636563893E+0004
 7.92680000000000E+0003  2.17218317957571E+0004
 7.92685000000000E+0003  2.17309060612392E+0004
 7.92690000000000E+0003  2.16740883584037E+0004
 7.92695000000000E+0003  2.15220850193526E+0004
 7.92700000000000E+0003  2.15896863729328E+0004
 7.92705000000000E+0003  2.17149795936694E+0004
 7.92710000000000E+0003  2.18280559327718E+0004
 7.92715000000000E+0003  2.15995502726953E+0004
 7.92720000000000E+0003  2.17295775193159E+0004
 7.92725000000000E+0003  2.16058928892139E+0004
 7.92730000000000E+0003  2.17178346015130E+0004
 7.92735000000000E+0003  2.21203999851557E+0004
 7.92740000000000E+0003  2.21137378038500E+0004
 7.92745000000000E+0003  2.18639044586046E+0004
 7.92750000000000E+0003  2.22435999992670E+0004
 7.92755000000000E+0003  2.18960807383298E+0004
 7.92760000000000E+0003  2.20258405355677E+0004
 7.92765000000000E+0003  2.20919083217878E+0004
 7.92770000000000E+0003  2.20837779750909E+0004
 7.92775000000000E+0003  2.21423377069039E+0004
 7.92780000000000E+0003  2.24451757400158E+0004
 7.92785000000000E+0003  2.23272252934040E+0004
 7.92790000000000E+0003  2.21557134976836E+0004
 7.92795000000000E+0003  2.24772854723786E+0004
 7.92800000000000E+0003  2.24954438537268E+0004
 7.92805000000000E+0003  2.23465660644646E+0004
 7.92810000000000E+0003  2.24092000755043E+0004
 7.92815000000000E+0003  2.27059738227187E+0004
 7.92820000000000E+0003  2.25878451528780E+0004
 7.92825000000000E+0003  2.25805328462204E+0004
 7.92830000000000E+0003  2.26259890472892E+0004
 7.92835000000000E+0003  2.24658960230105E+0004
 7.92840000000000E+0003  2.25996382389163E+0004
 7.92845000000000E+0003  2.27142095456178E+0004
 7.92850000000000E+0003  2.28184206535524E+0004
 7.92855000000000E+0003  2.29767968475106E+0004
 7.92860000000000E+0003  2.31188861185638E+0004
 7.92865000000000E+0003  2.29148228122068E+0004
 7.92870000000000E+0003  2.32144572942323E+0004
 7.92875000000000E+0003  2.34899168719212E+0004
 7.92880000000000E+0003  2.33223364103184E+0004
 7.92885000000000E+0003  2.30865122584594E+0004
 7.92890000000000E+0003  2.32211489121511E+0004
 7.92895000000000E+0003  2.34772929174364E+0004
 7.92900000000000E+0003  2.34920455857451E+0004
 7.92905000000000E+0003  2.35926766517491E+0004
 7.92910000000000E+0003  2.37667374061694E+0004
 7.92915000000000E+0003  2.36497858572308E+0004
 7.92920000000000E+0003  2.40026798771772E+0004
 7.92925000000000E+0003  2.38972878685418E+0004
 7.92930000000000E+0003  2.39755460778061E+0004
 7.92935000000000E+0003  2.42879842265570E+0004
 7.92940000000000E+0003  2.41146206731615E+0004
 7.92945000000000E+0003  2.42215003188776E+0004
 7.92950000000000E+0003  2.47507026989136E+0004
 7.92955000000000E+0003  2.48257863355472E+0004
 7.92960000000000E+0003  2.50386570307002E+0004
 7.92965000000000E+0003  2.49624708382814E+0004
 7.92970000000000E+0003  2.48779773358697E+0004
 7.92975000000000E+0003  2.49580462977217E+0004
 7.92980000000000E+0003  2.50862532849886E+0004
 7.92985000000000E+0003  2.52076541149865E+0004
 7.92990000000000E+0003  2.54160229555184E+0004
 7.92995000000000E+0003  2.54353479201487E+0004
 7.93000000000000E+0003  2.53635900480882E+0004
 7.93005000000000E+0003  2.54868965837952E+0004
 7.93010000000000E+0003  2.58251827131715E+0004
 7.93015000000000E+0003  2.55656222281477E+0004
 7.93020000000000E+0003  2.60416784642197E+0004
 7.93025000000000E+0003  2.61302804931240E+0004
 7.93030000000000E+0003  2.63053559516479E+0004
 7.93035000000000E+0003  2.65798105610779E+0004
 7.93040000000000E+0003  2.69255457570959E+0004
 7.93045000000000E+0003  2.73223629834477E+0004
 7.93050000000000E+0003  2.72615730559465E+0004
 7.93055000000000E+0003  2.74076849489796E+0004
 7.93060000000000E+0003  2.74972676638004E+0004
 7.93065000000000E+0003  2.75067842802530E+0004
 7.93070000000000E+0003  2.79947924684421E+0004
 7.93075000000000E+0003  2.81056035628152E+0004
 7.93080000000000E+0003  2.82044393390438E+0004
 7.93085000000000E+0003  2.80914073266699E+0004
 7.93090000000000E+0003  2.86116095481835E+0004
 7.93095000000000E+0003  2.88536284462600E+0004
 7.93100000000000E+0003  2.88107911874340E+0004
 7.93105000000000E+0003  2.90775110690828E+0004
 7.93110000000000E+0003  2.93696442545229E+0004
 7.93115000000000E+0003  2.95740987127610E+0004
 7.93120000000000E+0003  2.93948535637315E+0004
 7.93125000000000E+0003  3.02311615985295E+0004
 7.93130000000000E+0003  3.00316704739547E+0004
 7.93135000000000E+0003  3.03294591543514E+0004
 7.93140000000000E+0003  3.04456891053835E+0004
 7.93145000000000E+0003  3.05428849071956E+0004
 7.93150000000000E+0003  3.10953590487919E+0004
 7.93155000000000E+0003  3.12851995458744E+0004
 7.93160000000000E+0003  3.13153673780935E+0004
 7.93165000000000E+0003  3.16879460162298E+0004
 7.93170000000000E+0003  3.21955321864737E+0004
 7.93175000000000E+0003  3.24977069222085E+0004
 7.93180000000000E+0003  3.26243377334770E+0004
 7.93185000000000E+0003  3.28187192576384E+0004
 7.93190000000000E+0003  3.33443501861952E+0004
 7.93195000000000E+0003  3.38238474134266E+0004
 7.93200000000000E+0003  3.41367881608462E+0004
 7.93205000000000E+0003  3.46304740646258E+0004
 7.93210000000000E+0003  3.47643531550551E+0004
 7.93215000000000E+0003  3.51594740536301E+0004
 7.93220000000000E+0003  3.53769373185697E+0004
 7.93225000000000E+0003  3.57012048623329E+0004
 7.93230000000000E+0003  3.61019168847496E+0004
 7.93235000000000E+0003  3.64565382726366E+0004
 7.93240000000000E+0003  3.72461645353184E+0004
 7.93245000000000E+0003  3.79292435454785E+0004
 7.93250000000000E+0003  3.85454666241497E+0004
 7.93255000000000E+0003  3.88475174283075E+0004
 7.93260000000000E+0003  3.93108270382507E+0004
 7.93265000000000E+0003  3.97462369241878E+0004
 7.93270000000000E+0003  4.01128473749414E+0004
 7.93275000000000E+0003  4.12103187584301E+0004
 7.93280000000000E+0003  4.15623717159278E+0004
 7.93285000000000E+0003  4.24254197638107E+0004
 7.93290000000000E+0003  4.33316896936576E+0004
 7.93295000000000E+0003  4.38365106549085E+0004
 7.93300000000000E+0003  4.42883638099636E+0004
 7.93305000000000E+0003  4.55725187569640E+0004
 7.93310000000000E+0003  4.60604305030202E+0004
 7.93315000000000E+0003  4.71313060784659E+0004
 7.93320000000000E+0003  4.80010420790083E+0004
 7.93325000000000E+0003  4.86256521870602E+0004
 7.93330000000000E+0003  4.92076829789028E+0004
 7.93335000000000E+0003  5.01008759511348E+0004
 7.93340000000000E+0003  5.11486707021170E+0004
 7.93345000000000E+0003  5.17763287022783E+0004
 7.93350000000000E+0003  5.28945701933791E+0004
 7.93355000000000E+0003  5.33276191942294E+0004
 7.93360000000000E+0003  5.41349662979416E+0004
 7.93365000000000E+0003  5.54041720271083E+0004
 7.93370000000000E+0003  5.60398704605765E+0004
 7.93375000000000E+0003  5.68578694947807E+0004
 7.93380000000000E+0003  5.78142125923645E+0004
 7.93385000000000E+0003  5.89168920801079E+0004
 7.93390000000000E+0003  5.95794018846763E+0004
 7.93395000000000E+0003  6.04111715268004E+0004
 7.93400000000000E+0003  6.06502334770115E+0004
 7.93405000000000E+0003  6.12627294452264E+0004
 7.93410000000000E+0003  6.24421008166198E+0004
 7.93415000000000E+0003  6.28797675859137E+0004
 7.93420000000000E+0003  6.32565828055360E+0004
 7.93425000000000E+0003  6.40845671512140E+0004
 7.93430000000000E+0003  6.44960937500000E+0004
 7.93435000000000E+0003  6.51526892006803E+0004
 7.93440000000000E+0003  6.59306853668191E+0004
 7.93445000000000E+0003  6.67461294862773E+0004
 7.93450000000000E+0003  6.72298076288705E+0004
 7.93455000000000E+0003  6.73390616753167E+0004
 7.93460000000000E+0003  6.80387404153472E+0004
 7.93465000000000E+0003  6.85760110617523E+0004
 7.93470000000000E+0003  6.90332558131011E+0004
 7.93475000000000E+0003  6.97392397152827E+0004
 7.93480000000000E+0003  7.01073847642505E+0004
 7.93485000000000E+0003  7.06120153611013E+0004
 7.93490000000000E+0003  7.11035861812397E+0004
 7.93495000000000E+0003  7.12328653713640E+0004
 7.93500000000000E+0003  7.15710858696927E+0004
 7.93505000000000E+0003  7.22234406154703E+0004
 7.93510000000000E+0003  7.26027234708538E+0004
 7.93515000000000E+0003  7.31519973830049E+0004
 7.93520000000000E+0003  7.32447989971851E+0004
 7.93525000000000E+0003  7.34028238989561E+0004
 7.93530000000000E+0003  7.39994108095825E+0004
 7.93535000000000E+0003  7.46439553461471E+0004
 7.93540000000000E+0003  7.45618155128431E+0004
 7.93545000000000E+0003  7.44251851872215E+0004
 7.93550000000000E+0003  7.49119893377610E+0004
 7.93555000000000E+0003  7.54889955173880E+0004
 7.93560000000000E+0003  7.56597787283017E+0004
 7.93565000000000E+0003  7.59063691209242E+0004
 7.93570000000000E+0003  7.55670554590371E+0004
 7.93575000000000E+0003  7.53269227949801E+0004
 7.93580000000000E+0003  7.56314270320197E+0004
 7.93585000000000E+0003  7.48913126942587E+0004
 7.93590000000000E+0003  7.46249578495191E+0004
 7.93595000000000E+0003  7.46218538331281E+0004
 7.93600000000000E+0003  7.43931480728067E+0004
 7.93605000000000E+0003  7.37896301570197E+0004
 7.93610000000000E+0003  7.35428743695754E+0004
 7.93615000000000E+0003  7.30325058094358E+0004
 7.93620000000000E+0003  7.25184275488213E+0004
 7.93625000000000E+0003  7.15271980559465E+0004
 7.93630000000000E+0003  7.06629010709887E+0004
 7.93635000000000E+0003  7.01557116650540E+0004
 7.93640000000000E+0003  6.95626626458773E+0004
 7.93645000000000E+0003  6.87116270268883E+0004
 7.93650000000000E+0003  6.85419049085151E+0004
 7.93655000000000E+0003  6.79355926907401E+0004
 7.93660000000000E+0003  6.70965181870162E+0004
 7.93665000000000E+0003  6.69755114869224E+0004
 7.93670000000000E+0003  6.63658996195461E+0004
 7.93675000000000E+0003  6.59333710855032E+0004
 7.93680000000000E+0003  6.59128268494898E+0004
 7.93685000000000E+0003  6.57090278999531E+0004
 7.93690000000000E+0003  6.55131679018590E+0004
 7.93695000000000E+0003  6.57919168206076E+0004
 7.93700000000000E+0003  6.62755752624326E+0004
 7.93705000000000E+0003  6.61993016764896E+0004
 7.93710000000000E+0003  6.65486182889104E+0004
 7.93715000000000E+0003  6.74866437954492E+0004
 7.93720000000000E+0003  6.83569783786360E+0004
 7.93725000000000E+0003  6.87933393993373E+0004
 7.93730000000000E+0003  6.98313417231117E+0004
 7.93735000000000E+0003  7.03913598844711E+0004
 7.93740000000000E+0003  7.10283489473375E+0004
 7.93745000000000E+0003  7.19531295815740E+0004
 7.93750000000000E+0003  7.24395044386289E+0004
 7.93755000000000E+0003  7.23737561026566E+0004
 7.93760000000000E+0003  7.29912936349109E+0004
 7.93765000000000E+0003  7.39225287906111E+0004
 7.93770000000000E+0003  7.45357660575006E+0004
 7.93775000000000E+0003  7.50622067792634E+0004
 7.93780000000000E+0003  7.59903026404527E+0004
 7.93785000000000E+0003  7.64034955577058E+0004
 7.93790000000000E+0003  7.67241590062749E+0004
 7.93795000000000E+0003  7.67115138620103E+0004
 7.93800000000000E+0003  7.69375471902123E+0004
 7.93805000000000E+0003  7.71551371356732E+0004
 7.93810000000000E+0003  7.70062304824947E+0004
 7.93815000000000E+0003  7.72400877646317E+0004
 7.93820000000000E+0003  7.71220238095238E+0004
 7.93825000000000E+0003  7.69705313159747E+0004
 7.93830000000000E+0003  7.66546185014954E+0004
 7.93835000000000E+0003  7.62364504530260E+0004
 7.93840000000000E+0003  7.56843872786183E+0004
 7.93845000000000E+0003  7.51281347129369E+0004
 7.93850000000000E+0003  7.47602306547619E+0004
 7.93855000000000E+0003  7.42108307493256E+0004
 7.93860000000000E+0003  7.33343421959301E+0004
 7.93865000000000E+0003  7.25544849944288E+0004
 7.93870000000000E+0003  7.21513202263664E+0004
 7.93875000000000E+0003  7.15785652892623E+0004
 7.93880000000000E+0003  7.09254463369399E+0004
 7.93885000000000E+0003  7.02247477385351E+0004
 7.93890000000000E+0003  6.96425520100281E+0004
 7.93895000000000E+0003  6.86676769037356E+0004
 7.93900000000000E+0003  6.80691955122566E+0004
 7.93905000000000E+0003  6.68492057383298E+0004
 7.93910000000000E+0003  6.65057049759559E+0004
 7.93915000000000E+0003  6.60411228338318E+0004
 7.93920000000000E+0003  6.50526848940007E+0004
 7.93925000000000E+0003  6.40351805323422E+0004
 7.93930000000000E+0003  6.31511662854797E+0004
 7.93935000000000E+0003  6.21872924546974E+0004
 7.93940000000000E+0003  6.19093132403824E+0004
 7.93945000000000E+0003  6.11741827388283E+0004
 7.93950000000000E+0003  6.05895530491292E+0004
 7.93955000000000E+0003  6.01009272647637E+0004
 7.93960000000000E+0003  5.95278172556738E+0004
 7.93965000000000E+0003  5.83597905487626E+0004
 7.93970000000000E+0003  5.72748598496511E+0004
 7.93975000000000E+0003  5.60674968936928E+0004
 7.93980000000000E+0003  5.55730948898956E+0004
 7.93985000000000E+0003  5.37006543862157E+0004
 7.93990000000000E+0003  5.10887524190711E+0004
 7.93995000000000E+0003  4.73684075731586E+0004
 7.94000000000000E+0003  4.17831907547502E+0004
 7.94005000000000E+0003  3.39036268198012E+0004
 7.94010000000000E+0003  2.51741884657958E+0004
 7.94015000000000E+0003  1.67991637252962E+0004
 7.94020000000000E+0003  9.43246954627756E+0003
 7.94025000000000E+0003  4.54249197995470E+0003
 7.94030000000000E+0003  1.92917973274304E+0003
 7.94035000000000E+0003  7.82422900843055E+0002
 7.94040000000000E+0003  3.08589461933076E+0002
 7.94045000000000E+0003  1.34368960912759E+0002
 7.94050000000000E+0003  7.81341153300762E+0001
 7.94055000000000E+0003  4.49246768797056E+0001
 7.94060000000000E+0003  3.84780224460742E+0001
 7.94065000000000E+0003  6.83081310601573E+0001
 7.94070000000000E+0003  5.62366715289605E+0001
 7.94075000000000E+0003  2.74729740932853E+0001
 7.94080000000000E+0003  2.02656771385583E+0001
 7.94085000000000E+0003  1.85026049809699E+0001
 7.94090000000000E+0003  3.56048646455300E+0001
 7.94095000000000E+0003  2.87613725110997E+0001
 7.94100000000000E+0003  2.03385714248414E+0001
 7.94105000000000E+0003  1.85201184497720E+0001
 7.94110000000000E+0003  3.79467142486751E+0001
 7.94115000000000E+0003  4.93515231625843E+0001
 7.94120000000000E+0003  2.92764913160533E+0001
 7.94125000000000E+0003  2.69297706446065E+0001
 7.94130000000000E+0003  2.51103807751936E+0001
 7.94135000000000E+0003  3.98089753932693E+0001
 7.94140000000000E+0003  2.79516005722984E+0001
 7.94145000000000E+0003  2.56954200273944E+0001
 7.94150000000000E+0003  3.45632575212889E+0001
 7.94155000000000E+0003  2.73025808495422E+0001
 7.94160000000000E+0003  3.25517870858050E+0001
 7.94165000000000E+0003  2.56225302860878E+0001
 7.94170000000000E+0003  2.82316431315774E+0001
 7.94175000000000E+0003  1.70343321881998E+0001
 7.94180000000000E+0003  2.38868874086339E+0001
 7.94185000000000E+0003  4.50171191676133E+0001
 7.94190000000000E+0003  1.81364834539325E+0001
 7.94195000000000E+0003  1.23374235901283E+0001
 7.94200000000000E+0003  7.97599653682601E+0000
 7.94205000000000E+0003  2.33526536639943E+0001
 7.94210000000000E+0003  2.00183897696692E+0001
 7.94215000000000E+0003  1.23929393954213E+0001
 7.94220000000000E+0003  1.26771145372877E+0001
 7.94225000000000E+0003  2.01754227451894E+0001
 7.94230000000000E+0003  2.59780311092311E+0001
 7.94235000000000E+0003  1.83671788587107E+0001
 7.94240000000000E+0003  1.40253371289714E+0001
 7.94245000000000E+0003  2.75280938450786E+0001
 7.94250000000000E+0003  3.92108481589713E+0001
 7.94255000000000E+0003  3.11728791957894E+0001
 7.94260000000000E+0003  1.85465446061409E+0001
 7.94265000000000E+0003  2.02329896081090E+0001
 7.94270000000000E+0003  1.46871873675910E+0001
 7.94275000000000E+0003  1.23730927284998E+0001
 7.94280000000000E+0003  1.36743910993429E+0001
 7.94285000000000E+0003  1.90141444792916E+0001
 7.94290000000000E+0003  2.59799583138448E+0001
 7.94295000000000E+0003  1.64505327863209E+0001
 7.94300000000000E+0003  3.06655484872778E+0001

