[Info]
Number of Regions=0001
Version=1.3.1

[Region 1]
Region Name=VB
Dimension 1 name=Kinetic Energy [eV]
Dimension 1 size=401
Dimension 1 scale=7925 7925.05 7925.1 7925.15 7925.2 7925.25 7925.3 7925.35 7925.4 7925.45 7925.5 7925.55 7925.6 7925.65 7925.7 7925.75 7925.8 7925.85 7925.9 7925.95 7926 7926.05 7926.1 7926.15 7926.2 7926.25 7926.3 7926.35 7926.4 7926.45 7926.5 7926.55 7926.6 7926.65 7926.7 7926.75 7926.8 7926.85 7926.9 7926.95 7927 7927.05 7927.1 7927.15 7927.2 7927.25 7927.3 7927.35 7927.4 7927.45 7927.5 7927.55 7927.6 7927.65 7927.7 7927.75 7927.8 7927.85 7927.9 7927.95 7928 7928.05 7928.1 7928.15 7928.2 7928.25 7928.3 7928.35 7928.4 7928.45 7928.5 7928.55 7928.6 7928.65 7928.7 7928.75 7928.8 7928.85 7928.9 7928.95 7929 7929.05 7929.1 7929.15 7929.2 7929.25 7929.3 7929.35 7929.4 7929.45 7929.5 7929.55 7929.6 7929.65 7929.7 7929.75 7929.8 7929.85 7929.9 7929.95 7930 7930.05 7930.1 7930.15 7930.2 7930.25 7930.3 7930.35 7930.4 7930.45 7930.5 7930.55 7930.6 7930.65 7930.7 7930.75 7930.8 7930.85 7930.9 7930.95 7931 7931.05 7931.1 7931.15 7931.2 7931.25 7931.3 7931.35 7931.4 7931.45 7931.5 7931.55 7931.6 7931.65 7931.7 7931.75 7931.8 7931.85 7931.9 7931.95 7932 7932.05 7932.1 7932.15 7932.2 7932.25 7932.3 7932.35 7932.4 7932.45 7932.5 7932.55 7932.6 7932.65 7932.7 7932.75 7932.8 7932.85 7932.9 7932.95 7933 7933.05 7933.1 7933.15 7933.2 7933.25 7933.3 7933.35 7933.4 7933.45 7933.5 7933.55 7933.6 7933.65 7933.7 7933.75 7933.8 7933.85 7933.9 7933.95 7934 7934.05 7934.1 7934.15 7934.2 7934.25 7934.3 7934.35 7934.4 7934.45 7934.5 7934.55 7934.6 7934.65 7934.7 7934.75 7934.8 7934.85 7934.9 7934.95 7935 7935.05 7935.1 7935.15 7935.2 7935.25 7935.3 7935.35 7935.4 7935.45 7935.5 7935.55 7935.6 7935.65 7935.7 7935.75 7935.8 7935.85 7935.9 7935.95 7936 7936.05 7936.1 7936.15 7936.2 7936.25 7936.3 7936.35 7936.4 7936.45 7936.5 7936.55 7936.6 7936.65 7936.7 7936.75 7936.8 7936.85 7936.9 7936.95 7937 7937.05 7937.1 7937.15 7937.2 7937.25 7937.3 7937.35 7937.4 7937.45 7937.5 7937.55 7937.6 7937.65 7937.7 7937.75 7937.8 7937.85 7937.9 7937.95 7938 7938.05 7938.1 7938.15 7938.2 7938.25 7938.3 7938.35 7938.4 7938.45 7938.5 7938.55 7938.6 7938.65 7938.7 7938.75 7938.8 7938.85 7938.9 7938.95 7939 7939.05 7939.1 7939.15 7939.2 7939.25 7939.3 7939.35 7939.4 7939.45 7939.5 7939.55 7939.6 7939.65 7939.7 7939.75 7939.8 7939.85 7939.9 7939.95 7940 7940.05 7940.1 7940.15 7940.2 7940.25 7940.3 7940.35 7940.4 7940.45 7940.5 7940.55 7940.6 7940.65 7940.7 7940.75 7940.8 7940.85 7940.9 7940.95 7941 7941.05 7941.1 7941.15 7941.2 7941.25 7941.3 7941.35 7941.4 7941.45 7941.5 7941.55 7941.6 7941.65 7941.7 7941.75 7941.8 7941.85 7941.9 7941.95 7942 7942.05 7942.1 7942.15 7942.2 7942.25 7942.3 7942.35 7942.4 7942.45 7942.5 7942.55 7942.6 7942.65 7942.7 7942.75 7942.8 7942.85 7942.9 7942.95 7943 7943.05 7943.1 7943.15 7943.2 7943.25 7943.3 7943.35 7943.4 7943.45 7943.5 7943.55 7943.6 7943.65 7943.7 7943.75 7943.8 7943.85 7943.9 7943.95 7944 7944.05 7944.1 7944.15 7944.2 7944.25 7944.3 7944.35 7944.4 7944.45 7944.5 7944.55 7944.6 7944.65 7944.7 7944.75 7944.8 7944.85 7944.9 7944.95 7945

[Info 1]
Region Name=VB
Lens Mode=Transmission
Pass Energy=100
Number of Sweeps=3
Excitation Energy=7940
Energy Scale=Kinetic
Acquisition Mode=Swept
Energy Unit=Kinetic
Center Energy=7935
Low Energy=7925
High Energy=7945
Energy Step=0.05
Step Time=203
Detector First X-Channel=67
Detector Last X-Channel=1004
Detector First Y-Channel=1
Detector Last Y-Channel=1000
Number of Slices=1
File=C:\Experiment_Data\2020A\Miyazawa_20210216\withoutAl\VB_10VE_0001.ibw,.txt
Sequence=D:\Sequence\temp.seq
Spectrum Name=VB
Instrument=R4000HE-11508
Location=SPring-8 BL09XU
User=Miyazawa
Sample=withoutAl
Comments=PE100eV s0.3 TOA65 MCP1470V;hn=7940eV;BL09XU;SPring-8;2021/2/16;
Date=2021-02-16
Time=22:53:55
Time per Spectrum Channel=90.132
DetectorMode=ADC
ThetaX=0
ThetaY=0
[Run Mode Information 1]



[Data 1]
 7.92500000000000E+0003  8.46679458421300E+0002
 7.92505000000000E+0003  7.98748949674158E+0002
 7.92510000000000E+0003  7.91249027560917E+0002
 7.92515000000000E+0003  8.73209950399880E+0002
 7.92520000000000E+0003  8.58819970943658E+0002
 7.92525000000000E+0003  8.32050950768238E+0002
 7.92530000000000E+0003  8.01750109728697E+0002
 7.92535000000000E+0003  8.28989657554832E+0002
 7.92540000000000E+0003  8.35966564360119E+0002
 7.92545000000000E+0003  7.82994892461295E+0002
 7.92550000000000E+0003  7.82539741718347E+0002
 7.92555000000000E+0003  7.93050931983785E+0002
 7.92560000000000E+0003  8.19815313315520E+0002
 7.92565000000000E+0003  8.38750958694361E+0002
 7.92570000000000E+0003  8.57356873918749E+0002
 7.92575000000000E+0003  8.13324597417092E+0002
 7.92580000000000E+0003  8.60114179696663E+0002
 7.92585000000000E+0003  8.77359310170728E+0002
 7.92590000000000E+0003  8.27571545859723E+0002
 7.92595000000000E+0003  8.29414884892535E+0002
 7.92600000000000E+0003  8.49854202861101E+0002
 7.92605000000000E+0003  7.91750566740705E+0002
 7.92610000000000E+0003  7.88789796124538E+0002
 7.92615000000000E+0003  8.25743555099842E+0002
 7.92620000000000E+0003  8.25430519055683E+0002
 7.92625000000000E+0003  8.25117196663148E+0002
 7.92630000000000E+0003  8.50436692726660E+0002
 7.92635000000000E+0003  8.08732886675683E+0002
 7.92640000000000E+0003  7.70864445084338E+0002
 7.92645000000000E+0003  7.95253580958245E+0002
 7.92650000000000E+0003  7.64229423922047E+0002
 7.92655000000000E+0003  8.27870350389617E+0002
 7.92660000000000E+0003  8.66828505041564E+0002
 7.92665000000000E+0003  8.46155111593398E+0002
 7.92670000000000E+0003  8.35500646918250E+0002
 7.92675000000000E+0003  8.19075503652431E+0002
 7.92680000000000E+0003  8.08905382937119E+0002
 7.92685000000000E+0003  8.43811507631070E+0002
 7.92690000000000E+0003  8.27394840277167E+0002
 7.92695000000000E+0003  8.46878126924261E+0002
 7.92700000000000E+0003  8.09035871891860E+0002
 7.92705000000000E+0003  8.42103067317983E+0002
 7.92710000000000E+0003  8.40965548396083E+0002
 7.92715000000000E+0003  8.71051284535905E+0002
 7.92720000000000E+0003  8.32087030663559E+0002
 7.92725000000000E+0003  7.92417042584814E+0002
 7.92730000000000E+0003  8.44752534297663E+0002
 7.92735000000000E+0003  7.85659693396486E+0002
 7.92740000000000E+0003  8.08970942397703E+0002
 7.92745000000000E+0003  7.30044725325475E+0002
 7.92750000000000E+0003  7.55093708078598E+0002
 7.92755000000000E+0003  8.15759990351205E+0002
 7.92760000000000E+0003  8.55944804174364E+0002
 7.92765000000000E+0003  7.67758438572088E+0002
 7.92770000000000E+0003  8.18335751259017E+0002
 7.92775000000000E+0003  8.20274387031213E+0002
 7.92780000000000E+0003  7.92500026344051E+0002
 7.92785000000000E+0003  8.22019394031858E+0002
 7.92790000000000E+0003  8.56153752584008E+0002
 7.92795000000000E+0003  8.43244766926167E+0002
 7.92800000000000E+0003  8.66412011329316E+0002
 7.92805000000000E+0003  8.38489293548777E+0002
 7.92810000000000E+0003  7.92698494403149E+0002
 7.92815000000000E+0003  8.10511883228507E+0002
 7.92820000000000E+0003  8.39022445589227E+0002
 7.92825000000000E+0003  7.90469415473625E+0002
 7.92830000000000E+0003  8.26279427449859E+0002
 7.92835000000000E+0003  8.47114450238608E+0002
 7.92840000000000E+0003  8.35036848454360E+0002
 7.92845000000000E+0003  8.04516607289468E+0002
 7.92850000000000E+0003  8.88460578533677E+0002
 7.92855000000000E+0003  8.83695856103756E+0002
 7.92860000000000E+0003  8.78360212282650E+0002
 7.92865000000000E+0003  8.71547354461720E+0002
 7.92870000000000E+0003  8.51909640135688E+0002
 7.92875000000000E+0003  8.36552977198422E+0002
 7.92880000000000E+0003  8.86128614632814E+0002
 7.92885000000000E+0003  8.89787001478932E+0002
 7.92890000000000E+0003  9.07317678553102E+0002
 7.92895000000000E+0003  8.87915600305316E+0002
 7.92900000000000E+0003  8.16608240144118E+0002
 7.92905000000000E+0003  8.07241713192551E+0002
 7.92910000000000E+0003  9.08273767144250E+0002
 7.92915000000000E+0003  9.40366146795464E+0002
 7.92920000000000E+0003  8.94103760510131E+0002
 7.92925000000000E+0003  8.13041513413016E+0002
 7.92930000000000E+0003  8.94054050432134E+0002
 7.92935000000000E+0003  9.50044063288031E+0002
 7.92940000000000E+0003  8.24113516971983E+0002
 7.92945000000000E+0003  8.18060312756568E+0002
 7.92950000000000E+0003  8.67914882143590E+0002
 7.92955000000000E+0003  8.73629278961046E+0002
 7.92960000000000E+0003  9.43020281253665E+0002
 7.92965000000000E+0003  8.68364649537078E+0002
 7.92970000000000E+0003  9.11989767283530E+0002
 7.92975000000000E+0003  8.92352682923924E+0002
 7.92980000000000E+0003  9.04534143263987E+0002
 7.92985000000000E+0003  8.95291275858404E+0002
 7.92990000000000E+0003  8.55176531482744E+0002
 7.92995000000000E+0003  8.92549518797282E+0002
 7.93000000000000E+0003  9.45752846531932E+0002
 7.93005000000000E+0003  9.51612679689333E+0002
 7.93010000000000E+0003  9.55396888011670E+0002
 7.93015000000000E+0003  9.15383110073232E+0002
 7.93020000000000E+0003  8.74977893905407E+0002
 7.93025000000000E+0003  9.03970351947352E+0002
 7.93030000000000E+0003  9.60083551874414E+0002
 7.93035000000000E+0003  9.57344916010585E+0002
 7.93040000000000E+0003  9.48190387078862E+0002
 7.93045000000000E+0003  9.82002746882697E+0002
 7.93050000000000E+0003  1.01447093014199E+0003
 7.93055000000000E+0003  9.65224249721440E+0002
 7.93060000000000E+0003  9.42589269678777E+0002
 7.93065000000000E+0003  1.00414065478023E+0003
 7.93070000000000E+0003  1.01873545922949E+0003
 7.93075000000000E+0003  9.61044451118271E+0002
 7.93080000000000E+0003  1.02398376679605E+0003
 7.93085000000000E+0003  1.02250157033449E+0003
 7.93090000000000E+0003  9.76123900193159E+0002
 7.93095000000000E+0003  9.91375444641758E+0002
 7.93100000000000E+0003  1.04172067197030E+0003
 7.93105000000000E+0003  1.07462298800177E+0003
 7.93110000000000E+0003  1.10995425412891E+0003
 7.93115000000000E+0003  1.07127239702454E+0003
 7.93120000000000E+0003  1.08807374478617E+0003
 7.93125000000000E+0003  1.07723308207981E+0003
 7.93130000000000E+0003  1.09609734080863E+0003
 7.93135000000000E+0003  1.08872283928388E+0003
 7.93140000000000E+0003  1.06833033927472E+0003
 7.93145000000000E+0003  1.07454999780084E+0003
 7.93150000000000E+0003  1.09477787612890E+0003
 7.93155000000000E+0003  1.06364264455782E+0003
 7.93160000000000E+0003  1.10694765345524E+0003
 7.93165000000000E+0003  1.19929531955562E+0003
 7.93170000000000E+0003  1.18712700260600E+0003
 7.93175000000000E+0003  1.19698345731073E+0003
 7.93180000000000E+0003  1.23936247283127E+0003
 7.93185000000000E+0003  1.27983586854731E+0003
 7.93190000000000E+0003  1.35316278653164E+0003
 7.93195000000000E+0003  1.25266117862824E+0003
 7.93200000000000E+0003  1.23010869555257E+0003
 7.93205000000000E+0003  1.31709729453473E+0003
 7.93210000000000E+0003  1.31787054968809E+0003
 7.93215000000000E+0003  1.29913050888459E+0003
 7.93220000000000E+0003  1.25872036752470E+0003
 7.93225000000000E+0003  1.27845947781052E+0003
 7.93230000000000E+0003  1.32686538213076E+0003
 7.93235000000000E+0003  1.39879440461529E+0003
 7.93240000000000E+0003  1.33830113403120E+0003
 7.93245000000000E+0003  1.37390990036909E+0003
 7.93250000000000E+0003  1.47070724841661E+0003
 7.93255000000000E+0003  1.39975825324742E+0003
 7.93260000000000E+0003  1.42808177284923E+0003
 7.93265000000000E+0003  1.44356021975062E+0003
 7.93270000000000E+0003  1.54050180147490E+0003
 7.93275000000000E+0003  1.53982269766743E+0003
 7.93280000000000E+0003  1.54651191025979E+0003
 7.93285000000000E+0003  1.49494033874326E+0003
 7.93290000000000E+0003  1.58447947134134E+0003
 7.93295000000000E+0003  1.56123227847173E+0003
 7.93300000000000E+0003  1.56307550296519E+0003
 7.93305000000000E+0003  1.60874984422648E+0003
 7.93310000000000E+0003  1.64510142688541E+0003
 7.93315000000000E+0003  1.67915683919042E+0003
 7.93320000000000E+0003  1.81564645322030E+0003
 7.93325000000000E+0003  1.91019021091734E+0003
 7.93330000000000E+0003  1.79496860705489E+0003
 7.93335000000000E+0003  1.81624320323496E+0003
 7.93340000000000E+0003  1.79678073411477E+0003
 7.93345000000000E+0003  1.80756180772417E+0003
 7.93350000000000E+0003  1.81090566951457E+0003
 7.93355000000000E+0003  1.85856205696179E+0003
 7.93360000000000E+0003  1.88191640139353E+0003
 7.93365000000000E+0003  1.91317493457512E+0003
 7.93370000000000E+0003  1.93735172881114E+0003
 7.93375000000000E+0003  1.94874249538177E+0003
 7.93380000000000E+0003  1.99415448426138E+0003
 7.93385000000000E+0003  2.04957583787825E+0003
 7.93390000000000E+0003  1.99184897895042E+0003
 7.93395000000000E+0003  2.05257333267359E+0003
 7.93400000000000E+0003  1.97375542687441E+0003
 7.93405000000000E+0003  2.07739853417121E+0003
 7.93410000000000E+0003  2.08829924413192E+0003
 7.93415000000000E+0003  2.04158104850238E+0003
 7.93420000000000E+0003  2.02107839027313E+0003
 7.93425000000000E+0003  2.13596926176182E+0003
 7.93430000000000E+0003  2.14487154640951E+0003
 7.93435000000000E+0003  2.17172890505879E+0003
 7.93440000000000E+0003  2.18784825689435E+0003
 7.93445000000000E+0003  2.26138435236702E+0003
 7.93450000000000E+0003  2.30052330738330E+0003
 7.93455000000000E+0003  2.28481435003958E+0003
 7.93460000000000E+0003  2.34197738901595E+0003
 7.93465000000000E+0003  2.31263017397153E+0003
 7.93470000000000E+0003  2.33585279815051E+0003
 7.93475000000000E+0003  2.37991929328305E+0003
 7.93480000000000E+0003  2.36320067156712E+0003
 7.93485000000000E+0003  2.34053837388943E+0003
 7.93490000000000E+0003  2.43296550166403E+0003
 7.93495000000000E+0003  2.51097722224666E+0003
 7.93500000000000E+0003  2.49112669380791E+0003
 7.93505000000000E+0003  2.42574339474475E+0003
 7.93510000000000E+0003  2.49158634022036E+0003
 7.93515000000000E+0003  2.54139492205826E+0003
 7.93520000000000E+0003  2.59016984353008E+0003
 7.93525000000000E+0003  2.53374873319479E+0003
 7.93530000000000E+0003  2.62113985208846E+0003
 7.93535000000000E+0003  2.66099656794291E+0003
 7.93540000000000E+0003  2.67904281526727E+0003
 7.93545000000000E+0003  2.69699422400965E+0003
 7.93550000000000E+0003  2.57609616448950E+0003
 7.93555000000000E+0003  2.68989896942074E+0003
 7.93560000000000E+0003  2.71940539416198E+0003
 7.93565000000000E+0003  2.70300255743461E+0003
 7.93570000000000E+0003  2.53799745585195E+0003
 7.93575000000000E+0003  2.52746430266611E+0003
 7.93580000000000E+0003  2.71264001290171E+0003
 7.93585000000000E+0003  2.66049545828569E+0003
 7.93590000000000E+0003  2.61838037006290E+0003
 7.93595000000000E+0003  2.56266476485530E+0003
 7.93600000000000E+0003  2.65111182201868E+0003
 7.93605000000000E+0003  2.71676497579096E+0003
 7.93610000000000E+0003  2.68086318916036E+0003
 7.93615000000000E+0003  2.57692164958656E+0003
 7.93620000000000E+0003  2.52973057824962E+0003
 7.93625000000000E+0003  2.46120901552970E+0003
 7.93630000000000E+0003  2.47143440148150E+0003
 7.93635000000000E+0003  2.52128450383386E+0003
 7.93640000000000E+0003  2.33323419952572E+0003
 7.93645000000000E+0003  2.15137812600795E+0003
 7.93650000000000E+0003  2.20204065597144E+0003
 7.93655000000000E+0003  2.25634702628357E+0003
 7.93660000000000E+0003  2.36481905531609E+0003
 7.93665000000000E+0003  2.25371451112773E+0003
 7.93670000000000E+0003  2.28280573072440E+0003
 7.93675000000000E+0003  2.25574426295303E+0003
 7.93680000000000E+0003  2.23781902645218E+0003
 7.93685000000000E+0003  2.21105370017080E+0003
 7.93690000000000E+0003  2.21107368728741E+0003
 7.93695000000000E+0003  2.13761971652885E+0003
 7.93700000000000E+0003  2.16389532981835E+0003
 7.93705000000000E+0003  2.19430667269602E+0003
 7.93710000000000E+0003  2.27013120711647E+0003
 7.93715000000000E+0003  2.29908165785172E+0003
 7.93720000000000E+0003  2.45014142173572E+0003
 7.93725000000000E+0003  2.42111697858023E+0003
 7.93730000000000E+0003  2.45954882491790E+0003
 7.93735000000000E+0003  2.39192399077088E+0003
 7.93740000000000E+0003  2.43204082548968E+0003
 7.93745000000000E+0003  2.47183339930800E+0003
 7.93750000000000E+0003  2.41214940650290E+0003
 7.93755000000000E+0003  2.53138240748886E+0003
 7.93760000000000E+0003  2.61152129561415E+0003
 7.93765000000000E+0003  2.57003932364972E+0003
 7.93770000000000E+0003  2.56515141414863E+0003
 7.93775000000000E+0003  2.58795201809172E+0003
 7.93780000000000E+0003  2.61764216395071E+0003
 7.93785000000000E+0003  2.68449666369781E+0003
 7.93790000000000E+0003  2.59072724927794E+0003
 7.93795000000000E+0003  2.59740987585767E+0003
 7.93800000000000E+0003  2.59567208483609E+0003
 7.93805000000000E+0003  2.61349165878636E+0003
 7.93810000000000E+0003  2.60799657618974E+0003
 7.93815000000000E+0003  2.75755089212409E+0003
 7.93820000000000E+0003  2.71544531066737E+0003
 7.93825000000000E+0003  2.64939670978844E+0003
 7.93830000000000E+0003  2.71046445248358E+0003
 7.93835000000000E+0003  2.75255142129589E+0003
 7.93840000000000E+0003  2.58034654796725E+0003
 7.93845000000000E+0003  2.61320399320827E+0003
 7.93850000000000E+0003  2.67396356778164E+0003
 7.93855000000000E+0003  2.68714235087893E+0003
 7.93860000000000E+0003  2.60683073741350E+0003
 7.93865000000000E+0003  2.63803469259471E+0003
 7.93870000000000E+0003  2.65024172384471E+0003
 7.93875000000000E+0003  2.66928108460518E+0003
 7.93880000000000E+0003  2.64574445079756E+0003
 7.93885000000000E+0003  2.54844991606556E+0003
 7.93890000000000E+0003  2.61603494778838E+0003
 7.93895000000000E+0003  2.67859983433028E+0003
 7.93900000000000E+0003  2.55787129304847E+0003
 7.93905000000000E+0003  2.51570168409497E+0003
 7.93910000000000E+0003  2.63882587315637E+0003
 7.93915000000000E+0003  2.57640393172355E+0003
 7.93920000000000E+0003  2.55653244258371E+0003
 7.93925000000000E+0003  2.45508431012491E+0003
 7.93930000000000E+0003  2.55003651514485E+0003
 7.93935000000000E+0003  2.52900439876921E+0003
 7.93940000000000E+0003  2.55977230264412E+0003
 7.93945000000000E+0003  2.51441151285406E+0003
 7.93950000000000E+0003  2.52163648325710E+0003
 7.93955000000000E+0003  2.56517323389485E+0003
 7.93960000000000E+0003  2.56624039702088E+0003
 7.93965000000000E+0003  2.45989467648590E+0003
 7.93970000000000E+0003  2.31491328683952E+0003
 7.93975000000000E+0003  2.27395195349153E+0003
 7.93980000000000E+0003  2.14674105768385E+0003
 7.93985000000000E+0003  2.03552248957234E+0003
 7.93990000000000E+0003  1.79686383241335E+0003
 7.93995000000000E+0003  1.42495418998688E+0003
 7.94000000000000E+0003  1.22023337048990E+0003
 7.94005000000000E+0003  9.13640622938292E+0002
 7.94010000000000E+0003  6.08155757251715E+0002
 7.94015000000000E+0003  4.29256459790274E+0002
 7.94020000000000E+0003  2.53753397237128E+0002
 7.94025000000000E+0003  1.67288701242889E+0002
 7.94030000000000E+0003  8.57099031523978E+0001
 7.94035000000000E+0003  3.26583883780816E+0001
 7.94040000000000E+0003  1.92997382332007E+0001
 7.94045000000000E+0003  2.10646267594962E+0001
 7.94050000000000E+0003  1.04067127049710E+0001
 7.94055000000000E+0003  6.64294288943078E+0000
 7.94060000000000E+0003  4.23818840657269E+0000
 7.94065000000000E+0003  3.28664222626012E+0000
 7.94070000000000E+0003  2.72368607374527E+0000
 7.94075000000000E+0003  1.87330852224881E+0000
 7.94080000000000E+0003  7.56574001442008E+0000
 7.94085000000000E+0003  4.68803777567188E+0000
 7.94090000000000E+0003  4.18336900947744E+0000
 7.94095000000000E+0003  3.09215418587205E+0000
 7.94100000000000E+0003  2.82776301214177E+0000
 7.94105000000000E+0003  1.58590374769192E+0000
 7.94110000000000E+0003  0.00000000000000E+0000
 7.94115000000000E+0003  0.00000000000000E+0000
 7.94120000000000E+0003  0.00000000000000E+0000
 7.94125000000000E+0003  0.00000000000000E+0000
 7.94130000000000E+0003  0.00000000000000E+0000
 7.94135000000000E+0003  1.18855828274703E-0001
 7.94140000000000E+0003  2.15139776055812E+0000
 7.94145000000000E+0003  1.53283858350639E+0000
 7.94150000000000E+0003  4.02792028465826E+0000
 7.94155000000000E+0003  9.56745402734100E+0000
 7.94160000000000E+0003  3.71705694375339E+0000
 7.94165000000000E+0003  0.00000000000000E+0000
 7.94170000000000E+0003  4.10273129353354E-0001
 7.94175000000000E+0003  2.43063874013150E+0000
 7.94180000000000E+0003  9.85103874958207E-0001
 7.94185000000000E+0003  3.38871700506996E+0000
 7.94190000000000E+0003  2.47399750489627E+0000
 7.94195000000000E+0003  4.08649981483282E+0000
 7.94200000000000E+0003  2.38235282584756E+0000
 7.94205000000000E+0003  6.49653911702431E-0001
 7.94210000000000E+0003  0.00000000000000E+0000
 7.94215000000000E+0003  0.00000000000000E+0000
 7.94220000000000E+0003  0.00000000000000E+0000
 7.94225000000000E+0003  2.49858168741361E-0001
 7.94230000000000E+0003  2.16207967351475E+0000
 7.94235000000000E+0003  2.00315062048400E-0001
 7.94240000000000E+0003  3.18685138334614E+0000
 7.94245000000000E+0003  4.99264569789234E+0000
 7.94250000000000E+0003  2.75377183628284E+0000
 7.94255000000000E+0003  2.19884733624674E+0000
 7.94260000000000E+0003  7.78676589385965E-0001
 7.94265000000000E+0003  2.52419873746997E+0000
 7.94270000000000E+0003  1.46263853194371E+0000
 7.94275000000000E+0003  5.70620949101118E-0001
 7.94280000000000E+0003  0.00000000000000E+0000
 7.94285000000000E+0003  3.69184905868054E-0001
 7.94290000000000E+0003  3.70108099742140E-0001
 7.94295000000000E+0003  1.57060137718965E+0000
 7.94300000000000E+0003  6.04489138784639E-0001
 7.94305000000000E+0003  1.20172163927301E-0001
 7.94310000000000E+0003  2.26148270872762E+0000
 7.94315000000000E+0003  2.16777213380954E+0000
 7.94320000000000E+0003  0.00000000000000E+0000
 7.94325000000000E+0003  3.66822091341298E-0002
 7.94330000000000E+0003  7.49868376837240E-0001
 7.94335000000000E+0003  5.80681578363020E-0001
 7.94340000000000E+0003  7.09195833879543E+0000
 7.94345000000000E+0003  3.70023430176752E+0000
 7.94350000000000E+0003  1.07501723691943E+0000
 7.94355000000000E+0003  0.00000000000000E+0000
 7.94360000000000E+0003  8.63374607847689E-0002
 7.94365000000000E+0003  8.11920559185367E-0001
 7.94370000000000E+0003  1.72463611009505E+0000
 7.94375000000000E+0003  3.76007924917688E-0002
 7.94380000000000E+0003  0.00000000000000E+0000
 7.94385000000000E+0003  0.00000000000000E+0000
 7.94390000000000E+0003  0.00000000000000E+0000
 7.94395000000000E+0003  0.00000000000000E+0000
 7.94400000000000E+0003  0.00000000000000E+0000
 7.94405000000000E+0003  5.02020819713441E-0002
 7.94410000000000E+0003  3.27656841210963E-0001
 7.94415000000000E+0003  2.22606030311379E+0000
 7.94420000000000E+0003  6.73475859452099E-0001
 7.94425000000000E+0003  2.88519902937350E+0000
 7.94430000000000E+0003  1.76078703323497E+0000
 7.94435000000000E+0003  6.91452746764752E-0002
 7.94440000000000E+0003  1.20822001364822E+0000
 7.94445000000000E+0003  2.02262622494108E+0000
 7.94450000000000E+0003  2.49028038089331E-0001
 7.94455000000000E+0003  2.47848864427173E-0001
 7.94460000000000E+0003  7.39843471213011E-0001
 7.94465000000000E+0003  8.64193558609041E+0000
 7.94470000000000E+0003  1.95291659766566E+0001
 7.94475000000000E+0003  9.04429957197218E+0000
 7.94480000000000E+0003  5.38635444059468E-0001
 7.94485000000000E+0003  1.10864925910239E-0001
 7.94490000000000E+0003  1.26010231252514E-0001
 7.94495000000000E+0003  0.00000000000000E+0000
 7.94500000000000E+0003  0.00000000000000E+0000

